# time                 amplitude              uBulk                  uAxis                  tauWall                
+0.0000000000000e+00   -4.0000000000000e+00   +8.7583503335035e-01   +4.6022238534781e-03   -1.0887558481591e-01   
+1.6730375078289e-03   -3.9999987662995e+00   +8.8179830089070e-01   +1.1299305614290e-02   -1.0895628149800e-01   
+3.3460750156578e-03   -3.9999950651988e+00   +8.8776102449356e-01   +1.7996380405122e-02   -1.0903691097037e-01   
+5.0191125234867e-03   -3.9999888967002e+00   +8.9372320048081e-01   +2.4693444094882e-02   -1.0911747318330e-01   
+6.6921500313155e-03   -3.9999802608074e+00   +8.9968482517469e-01   +3.1390492552486e-02   -1.0919796808709e-01   
+8.3651875391444e-03   -3.9999691575259e+00   +9.0564589489776e-01   +3.8087521646857e-02   -1.0927839563208e-01   
+1.0038225046973e-02   -3.9999555868624e+00   +9.1160640597294e-01   +4.4784527246930e-02   -1.0935875576867e-01   
+1.1711262554802e-02   -3.9999395488253e+00   +9.1756635472349e-01   +5.1481505221657e-02   -1.0943904844729e-01   
+1.3384300062631e-02   -3.9999210434245e+00   +9.2352573747302e-01   +5.8178451440005e-02   -1.0951927361840e-01   
+1.5057337570460e-02   -3.9999000706715e+00   +9.2948455054546e-01   +6.4875361770961e-02   -1.0959943123252e-01   
+1.6730375078289e-02   -3.9998766305792e+00   +9.3544279026513e-01   +7.1572232083535e-02   -1.0967952124021e-01   
+1.8403412586118e-02   -3.9998507231619e+00   +9.4140045295670e-01   +7.8269058246760e-02   -1.0975954359206e-01   
+2.0076450093947e-02   -3.9998223484358e+00   +9.4735753494516e-01   +8.4965836129697e-02   -1.0983949823870e-01   
+2.1749487601775e-02   -3.9997915064183e+00   +9.5331403255589e-01   +9.1662561601437e-02   -1.0991938513082e-01   
+2.3422525109604e-02   -3.9997581971284e+00   +9.5926994211464e-01   +9.8359230531104e-02   -1.0999920421915e-01   
+2.5095562617433e-02   -3.9997224205867e+00   +9.6522525994748e-01   +1.0505583878786e-01   -1.1007895545444e-01   
+2.6768600125262e-02   -3.9996841768153e+00   +9.7117998238089e-01   +1.1175238224089e-01   -1.1015863878750e-01   
+2.8441637633091e-02   -3.9996434658377e+00   +9.7713410574170e-01   +1.1844885675943e-01   -1.1023825416917e-01   
+3.0114675140920e-02   -3.9996002876790e+00   +9.8308762635709e-01   +1.2514525821278e-01   -1.1031780155035e-01   
+3.1787712648749e-02   -3.9995546423660e+00   +9.8904054055464e-01   +1.3184158247024e-01   -1.1039728088197e-01   
+3.3460750156578e-02   -3.9995065299266e+00   +9.9499284466229e-01   +1.3853782540118e-01   -1.1047669211500e-01   
+3.5133787664407e-02   -3.9994559503908e+00   +1.0009445350084e+00   +1.4523398287504e-01   -1.1055603520045e-01   
+3.6806825172235e-02   -3.9994029037895e+00   +1.0068956079216e+00   +1.5193005076127e-01   -1.1063531008939e-01   
+3.8479862680064e-02   -3.9993473901556e+00   +1.0128460597309e+00   +1.5862602492942e-01   -1.1071451673291e-01   
+4.0152900187893e-02   -3.9992894095232e+00   +1.0187958867660e+00   +1.6532190124907e-01   -1.1079365508215e-01   
+4.1825937695722e-02   -3.9992289619283e+00   +1.0247450853566e+00   +1.7201767558986e-01   -1.1087272508830e-01   
+4.3498975203551e-02   -3.9991660474079e+00   +1.0306936518329e+00   +1.7871334382151e-01   -1.1095172670258e-01   
+4.5172012711380e-02   -3.9991006660010e+00   +1.0366415825255e+00   +1.8540890181378e-01   -1.1103065987626e-01   
+4.6845050219209e-02   -3.9990328177479e+00   +1.0425888737656e+00   +1.9210434543653e-01   -1.1110952456066e-01   
+4.8518087727038e-02   -3.9989625026905e+00   +1.0485355218845e+00   +1.9879967055967e-01   -1.1118832070711e-01   
+5.0191125234867e-02   -3.9988897208720e+00   +1.0544815232139e+00   +2.0549487305319e-01   -1.1126704826702e-01   
+5.1864162742695e-02   -3.9988144723374e+00   +1.0604268740862e+00   +2.1218994878714e-01   -1.1134570719183e-01   
+5.3537200250524e-02   -3.9987367571332e+00   +1.0663715708339e+00   +2.1888489363167e-01   -1.1142429743301e-01   
+5.5210237758353e-02   -3.9986565753072e+00   +1.0723156097901e+00   +2.2557970345700e-01   -1.1150281894209e-01   
+5.6883275266182e-02   -3.9985739269090e+00   +1.0782589872881e+00   +2.3227437413343e-01   -1.1158127167062e-01   
+5.8556312774011e-02   -3.9984888119894e+00   +1.0842016996618e+00   +2.3896890153136e-01   -1.1165965557022e-01   
+6.0229350281840e-02   -3.9984012306010e+00   +1.0901437432454e+00   +2.4566328152126e-01   -1.1173797059254e-01   
+6.1902387789669e-02   -3.9983111827979e+00   +1.0960851143736e+00   +2.5235750997371e-01   -1.1181621668926e-01   
+6.3575425297498e-02   -3.9982186686355e+00   +1.1020258093814e+00   +2.5905158275937e-01   -1.1189439381211e-01   
+6.5248462805326e-02   -3.9981236881710e+00   +1.1079658246043e+00   +2.6574549574900e-01   -1.1197250191289e-01   
+6.6921500313155e-02   -3.9980262414629e+00   +1.1139051563782e+00   +2.7243924481345e-01   -1.1205054094340e-01   
+6.8594537820984e-02   -3.9979263285714e+00   +1.1198438010395e+00   +2.7913282582369e-01   -1.1212851085551e-01   
+7.0267575328813e-02   -3.9978239495580e+00   +1.1257817549248e+00   +2.8582623465078e-01   -1.1220641160111e-01   
+7.1940612836642e-02   -3.9977191044859e+00   +1.1317190143714e+00   +2.9251946716588e-01   -1.1228424313217e-01   
+7.3613650344471e-02   -3.9976117934199e+00   +1.1376555757168e+00   +2.9921251924028e-01   -1.1236200540066e-01   
+7.5286687852300e-02   -3.9975020164260e+00   +1.1435914352991e+00   +3.0590538674537e-01   -1.1243969835862e-01   
+7.6959725360129e-02   -3.9973897735721e+00   +1.1495265894568e+00   +3.1259806555264e-01   -1.1251732195813e-01   
+7.8632762867958e-02   -3.9972750649273e+00   +1.1554610345287e+00   +3.1929055153372e-01   -1.1259487615130e-01   
+8.0305800375786e-02   -3.9971578905624e+00   +1.1613947668542e+00   +3.2598284056035e-01   -1.1267236089029e-01   
+8.1978837883615e-02   -3.9970382505496e+00   +1.1673277827730e+00   +3.3267492850438e-01   -1.1274977612731e-01   
+8.3651875391444e-02   -3.9969161449629e+00   +1.1732600786254e+00   +3.3936681123780e-01   -1.1282712181460e-01   
+8.5324912899273e-02   -3.9967915738775e+00   +1.1791916507521e+00   +3.4605848463272e-01   -1.1290439790446e-01   
+8.6997950407102e-02   -3.9966645373702e+00   +1.1851224954941e+00   +3.5274994456138e-01   -1.1298160434921e-01   
+8.8670987914931e-02   -3.9965350355194e+00   +1.1910526091930e+00   +3.5944118689615e-01   -1.1305874110123e-01   
+9.0344025422760e-02   -3.9964030684050e+00   +1.1969819881908e+00   +3.6613220750953e-01   -1.1313580811294e-01   
+9.2017062930589e-02   -3.9962686361084e+00   +1.2029106288300e+00   +3.7282300227418e-01   -1.1321280533679e-01   
+9.3690100438418e-02   -3.9961317387125e+00   +1.2088385274534e+00   +3.7951356706287e-01   -1.1328973272530e-01   
+9.5363137946246e-02   -3.9959923763018e+00   +1.2147656804045e+00   +3.8620389774851e-01   -1.1336659023101e-01   
+9.7036175454075e-02   -3.9958505489622e+00   +1.2206920840271e+00   +3.9289399020420e-01   -1.1344337780652e-01   
+9.8709212961904e-02   -3.9957062567812e+00   +1.2266177346655e+00   +3.9958384030312e-01   -1.1352009540444e-01   
+1.0038225046973e-01   -3.9955594998479e+00   +1.2325426286645e+00   +4.0627344391866e-01   -1.1359674297747e-01   
+1.0205528797756e-01   -3.9954102782527e+00   +1.2384667623692e+00   +4.1296279692433e-01   -1.1367332047832e-01   
+1.0372832548539e-01   -3.9952585920877e+00   +1.2443901321254e+00   +4.1965189519379e-01   -1.1374982785976e-01   
+1.0540136299322e-01   -3.9951044414465e+00   +1.2503127342793e+00   +4.2634073460088e-01   -1.1382626507458e-01   
+1.0707440050105e-01   -3.9949478264241e+00   +1.2562345651774e+00   +4.3302931101959e-01   -1.1390263207565e-01   
+1.0874743800888e-01   -3.9947887471172e+00   +1.2621556211670e+00   +4.3971762032406e-01   -1.1397892881585e-01   
+1.1042047551671e-01   -3.9946272036238e+00   +1.2680758985955e+00   +4.4640565838860e-01   -1.1405515524812e-01   
+1.1209351302454e-01   -3.9944631960437e+00   +1.2739953938111e+00   +4.5309342108771e-01   -1.1413131132544e-01   
+1.1376655053236e-01   -3.9942967244780e+00   +1.2799141031624e+00   +4.5978090429604e-01   -1.1420739700083e-01   
+1.1543958804019e-01   -3.9941277890294e+00   +1.2858320229983e+00   +4.6646810388839e-01   -1.1428341222736e-01   
+1.1711262554802e-01   -3.9939563898022e+00   +1.2917491496684e+00   +4.7315501573979e-01   -1.1435935695815e-01   
+1.1878566305585e-01   -3.9937825269019e+00   +1.2976654795228e+00   +4.7984163572540e-01   -1.1443523114633e-01   
+1.2045870056368e-01   -3.9936062004359e+00   +1.3035810089118e+00   +4.8652795972058e-01   -1.1451103474511e-01   
+1.2213173807151e-01   -3.9934274105130e+00   +1.3094957341867e+00   +4.9321398360087e-01   -1.1458676770774e-01   
+1.2380477557934e-01   -3.9932461572433e+00   +1.3154096516987e+00   +4.9989970324199e-01   -1.1466242998749e-01   
+1.2547781308717e-01   -3.9930624407389e+00   +1.3213227578000e+00   +5.0658511451986e-01   -1.1473802153769e-01   
+1.2715085059500e-01   -3.9928762611128e+00   +1.3272350488430e+00   +5.1327021331058e-01   -1.1481354231171e-01   
+1.2882388810282e-01   -3.9926876184801e+00   +1.3331465211808e+00   +5.1995499549044e-01   -1.1488899226298e-01   
+1.3049692561065e-01   -3.9924965129571e+00   +1.3390571711668e+00   +5.2663945693594e-01   -1.1496437134494e-01   
+1.3216996311848e-01   -3.9923029446616e+00   +1.3449669951551e+00   +5.3332359352375e-01   -1.1503967951110e-01   
+1.3384300062631e-01   -3.9921069137131e+00   +1.3508759895001e+00   +5.4000740113079e-01   -1.1511491671500e-01   
+1.3551603813414e-01   -3.9919084202324e+00   +1.3567841505570e+00   +5.4669087563412e-01   -1.1519008291024e-01   
+1.3718907564197e-01   -3.9917074643421e+00   +1.3626914746812e+00   +5.5337401291105e-01   -1.1526517805045e-01   
+1.3886211314980e-01   -3.9915040461661e+00   +1.3685979582289e+00   +5.6005680883909e-01   -1.1534020208931e-01   
+1.4053515065763e-01   -3.9912981658298e+00   +1.3745035975565e+00   +5.6673925929596e-01   -1.1541515498053e-01   
+1.4220818816546e-01   -3.9910898234602e+00   +1.3804083890213e+00   +5.7342136015957e-01   -1.1549003667789e-01   
+1.4388122567328e-01   -3.9908790191860e+00   +1.3863123289809e+00   +5.8010310730807e-01   -1.1556484713520e-01   
+1.4555426318111e-01   -3.9906657531370e+00   +1.3922154137933e+00   +5.8678449661984e-01   -1.1563958630629e-01   
+1.4722730068894e-01   -3.9904500254449e+00   +1.3981176398174e+00   +5.9346552397344e-01   -1.1571425414508e-01   
+1.4890033819677e-01   -3.9902318362427e+00   +1.4040190034122e+00   +6.0014618524769e-01   -1.1578885060551e-01   
+1.5057337570460e-01   -3.9900111856651e+00   +1.4099195009376e+00   +6.0682647632162e-01   -1.1586337564155e-01   
+1.5224641321243e-01   -3.9897880738481e+00   +1.4158191287537e+00   +6.1350639307449e-01   -1.1593782920725e-01   
+1.5391945072026e-01   -3.9895625009293e+00   +1.4217178832215e+00   +6.2018593138579e-01   -1.1601221125666e-01   
+1.5559248822809e-01   -3.9893344670479e+00   +1.4276157607023e+00   +6.2686508713525e-01   -1.1608652174391e-01   
+1.5726552573592e-01   -3.9891039723446e+00   +1.4335127575580e+00   +6.3354385620283e-01   -1.1616076062317e-01   
+1.5893856324374e-01   -3.9888710169616e+00   +1.4394088701509e+00   +6.4022223446873e-01   -1.1623492784863e-01   
+1.6061160075157e-01   -3.9886356010425e+00   +1.4453040948442e+00   +6.4690021781338e-01   -1.1630902337455e-01   
+1.6228463825940e-01   -3.9883977247325e+00   +1.4511984280012e+00   +6.5357780211748e-01   -1.1638304715522e-01   
+1.6395767576723e-01   -3.9881573881784e+00   +1.4570918659862e+00   +6.6025498326195e-01   -1.1645699914497e-01   
+1.6563071327506e-01   -3.9879145915285e+00   +1.4629844051637e+00   +6.6693175712798e-01   -1.1653087929820e-01   
+1.6730375078289e-01   -3.9876693349325e+00   +1.4688760418989e+00   +6.7360811959698e-01   -1.1660468756933e-01   
+1.6897678829072e-01   -3.9874216185417e+00   +1.4747667725575e+00   +6.8028406655066e-01   -1.1667842391283e-01   
+1.7064982579855e-01   -3.9871714425089e+00   +1.4806565935060e+00   +6.8695959387094e-01   -1.1675208828321e-01   
+1.7232286330638e-01   -3.9869188069884e+00   +1.4865455011110e+00   +6.9363469744003e-01   -1.1682568063504e-01   
+1.7399590081420e-01   -3.9866637121361e+00   +1.4924334917401e+00   +7.0030937314039e-01   -1.1689920092292e-01   
+1.7566893832203e-01   -3.9864061581093e+00   +1.4983205617612e+00   +7.0698361685475e-01   -1.1697264910150e-01   
+1.7734197582986e-01   -3.9861461450669e+00   +1.5042067075429e+00   +7.1365742446608e-01   -1.1704602512547e-01   
+1.7901501333769e-01   -3.9858836731693e+00   +1.5100919254544e+00   +7.2033079185766e-01   -1.1711932894958e-01   
+1.8068805084552e-01   -3.9856187425784e+00   +1.5159762118652e+00   +7.2700371491302e-01   -1.1719256052859e-01   
+1.8236108835335e-01   -3.9853513534575e+00   +1.5218595631458e+00   +7.3367618951595e-01   -1.1726571981735e-01   
+1.8403412586118e-01   -3.9850815059718e+00   +1.5277419756669e+00   +7.4034821155055e-01   -1.1733880677072e-01   
+1.8570716336901e-01   -3.9848092002875e+00   +1.5336234458000e+00   +7.4701977690118e-01   -1.1741182134362e-01   
+1.8738020087684e-01   -3.9845344365727e+00   +1.5395039699172e+00   +7.5369088145248e-01   -1.1748476349101e-01   
+1.8905323838466e-01   -3.9842572149969e+00   +1.5453835443909e+00   +7.6036152108937e-01   -1.1755763316789e-01   
+1.9072627589249e-01   -3.9839775357310e+00   +1.5512621655944e+00   +7.6703169169707e-01   -1.1763043032932e-01   
+1.9239931340032e-01   -3.9836953989476e+00   +1.5571398299015e+00   +7.7370138916109e-01   -1.1770315493039e-01   
+1.9407235090815e-01   -3.9834108048207e+00   +1.5630165336865e+00   +7.8037060936721e-01   -1.1777580692623e-01   
+1.9574538841598e-01   -3.9831237535260e+00   +1.5688922733243e+00   +7.8703934820154e-01   -1.1784838627205e-01   
+1.9741842592381e-01   -3.9828342452403e+00   +1.5747670451906e+00   +7.9370760155045e-01   -1.1792089292306e-01   
+1.9909146343164e-01   -3.9825422801424e+00   +1.5806408456614e+00   +8.0037536530064e-01   -1.1799332683453e-01   
+2.0076450093947e-01   -3.9822478584123e+00   +1.5865136711136e+00   +8.0704263533909e-01   -1.1806568796180e-01   
+2.0243753844730e-01   -3.9819509802317e+00   +1.5923855179244e+00   +8.1370940755309e-01   -1.1813797626021e-01   
+2.0411057595512e-01   -3.9816516457836e+00   +1.5982563824718e+00   +8.2037567783024e-01   -1.1821019168519e-01   
+2.0578361346295e-01   -3.9813498552527e+00   +1.6041262611344e+00   +8.2704144205846e-01   -1.1828233419218e-01   
+2.0745665097078e-01   -3.9810456088252e+00   +1.6099951502913e+00   +8.3370669612596e-01   -1.1835440373668e-01   
+2.0912968847861e-01   -3.9807389066888e+00   +1.6158630463223e+00   +8.4037143592129e-01   -1.1842640027424e-01   
+2.1080272598644e-01   -3.9804297490326e+00   +1.6217299456078e+00   +8.4703565733329e-01   -1.1849832376045e-01   
+2.1247576349427e-01   -3.9801181360473e+00   +1.6275958445288e+00   +8.5369935625114e-01   -1.1857017415094e-01   
+2.1414880100210e-01   -3.9798040679252e+00   +1.6334607394668e+00   +8.6036252856433e-01   -1.1864195140138e-01   
+2.1582183850993e-01   -3.9794875448600e+00   +1.6393246268043e+00   +8.6702517016269e-01   -1.1871365546751e-01   
+2.1749487601775e-01   -3.9791685670469e+00   +1.6451875029239e+00   +8.7368727693636e-01   -1.1878528630510e-01   
+2.1916791352558e-01   -3.9788471346827e+00   +1.6510493642092e+00   +8.8034884477582e-01   -1.1885684386995e-01   
+2.2084095103341e-01   -3.9785232479657e+00   +1.6569102070443e+00   +8.8700986957188e-01   -1.1892832811792e-01   
+2.2251398854124e-01   -3.9781969070957e+00   +1.6627700278140e+00   +8.9367034721569e-01   -1.1899973900493e-01   
+2.2418702604907e-01   -3.9778681122739e+00   +1.6686288229035e+00   +9.0033027359873e-01   -1.1907107648692e-01   
+2.2586006355690e-01   -3.9775368637033e+00   +1.6744865886990e+00   +9.0698964461282e-01   -1.1914234051989e-01   
+2.2753310106473e-01   -3.9772031615880e+00   +1.6803433215870e+00   +9.1364845615012e-01   -1.1921353105988e-01   
+2.2920613857256e-01   -3.9768670061340e+00   +1.6861990179548e+00   +9.2030670410316e-01   -1.1928464806297e-01   
+2.3087917608039e-01   -3.9765283975486e+00   +1.6920536741904e+00   +9.2696438436478e-01   -1.1935569148530e-01   
+2.3255221358821e-01   -3.9761873360407e+00   +1.6979072866822e+00   +9.3362149282819e-01   -1.1942666128304e-01   
+2.3422525109604e-01   -3.9758438218207e+00   +1.7037598518195e+00   +9.4027802538696e-01   -1.1949755741241e-01   
+2.3589828860387e-01   -3.9754978551005e+00   +1.7096113659921e+00   +9.4693397793500e-01   -1.1956837982969e-01   
+2.3757132611170e-01   -3.9751494360934e+00   +1.7154618255905e+00   +9.5358934636658e-01   -1.1963912849118e-01   
+2.3924436361953e-01   -3.9747985650145e+00   +1.7213112270059e+00   +9.6024412657634e-01   -1.1970980335325e-01   
+2.4091740112736e-01   -3.9744452420800e+00   +1.7271595666301e+00   +9.6689831445928e-01   -1.1978040437229e-01   
+2.4259043863519e-01   -3.9740894675081e+00   +1.7330068408554e+00   +9.7355190591076e-01   -1.1985093150477e-01   
+2.4426347614302e-01   -3.9737312415181e+00   +1.7388530460750e+00   +9.8020489682651e-01   -1.1992138470717e-01   
+2.4593651365085e-01   -3.9733705643310e+00   +1.7446981786828e+00   +9.8685728310264e-01   -1.1999176393603e-01   
+2.4760955115867e-01   -3.9730074361694e+00   +1.7505422350730e+00   +9.9350906063560e-01   -1.2006206914794e-01   
+2.4928258866650e-01   -3.9726418572571e+00   +1.7563852116408e+00   +1.0001602253223e+00   -1.2013230029954e-01   
+2.5095562617433e-01   -3.9722738278197e+00   +1.7622271047820e+00   +1.0068107730598e+00   -1.2020245734750e-01   
+2.5262866368216e-01   -3.9719033480843e+00   +1.7680679108929e+00   +1.0134606997460e+00   -1.2027254024854e-01   
+2.5430170118999e-01   -3.9715304182793e+00   +1.7739076263708e+00   +1.0201100012786e+00   -1.2034254895944e-01   
+2.5597473869782e-01   -3.9711550386348e+00   +1.7797462476133e+00   +1.0267586735561e+00   -1.2041248343701e-01   
+2.5764777620565e-01   -3.9707772093823e+00   +1.7855837710188e+00   +1.0334067124773e+00   -1.2048234363811e-01   
+2.5932081371348e-01   -3.9703969307550e+00   +1.7914201929866e+00   +1.0400541139413e+00   -1.2055212951964e-01   
+2.6099385122131e-01   -3.9700142029873e+00   +1.7972555099165e+00   +1.0467008738477e+00   -1.2062184103857e-01   
+2.6266688872913e-01   -3.9696290263154e+00   +1.8030897182088e+00   +1.0533469880964e+00   -1.2069147815188e-01   
+2.6433992623696e-01   -3.9692414009769e+00   +1.8089228142648e+00   +1.0599924525877e+00   -1.2076104081662e-01   
+2.6601296374479e-01   -3.9688513272109e+00   +1.8147547944863e+00   +1.0666372632225e+00   -1.2083052898989e-01   
+2.6768600125262e-01   -3.9684588052579e+00   +1.8205856552758e+00   +1.0732814159017e+00   -1.2089994262882e-01   
+2.6935903876045e-01   -3.9680638353602e+00   +1.8264153930367e+00   +1.0799249065271e+00   -1.2096928169058e-01   
+2.7103207626828e-01   -3.9676664177613e+00   +1.8322440041728e+00   +1.0865677310006e+00   -1.2103854613242e-01   
+2.7270511377611e-01   -3.9672665527065e+00   +1.8380714850887e+00   +1.0932098852244e+00   -1.2110773591160e-01   
+2.7437815128394e-01   -3.9668642404423e+00   +1.8438978321898e+00   +1.0998513651015e+00   -1.2117685098544e-01   
+2.7605118879177e-01   -3.9664594812169e+00   +1.8497230418820e+00   +1.1064921665350e+00   -1.2124589131131e-01   
+2.7772422629959e-01   -3.9660522752800e+00   +1.8555471105722e+00   +1.1131322854286e+00   -1.2131485684663e-01   
+2.7939726380742e-01   -3.9656426228828e+00   +1.8613700346676e+00   +1.1197717176862e+00   -1.2138374754885e-01   
+2.8107030131525e-01   -3.9652305242780e+00   +1.8671918105766e+00   +1.1264104592124e+00   -1.2145256337547e-01   
+2.8274333882308e-01   -3.9648159797198e+00   +1.8730124347077e+00   +1.1330485059120e+00   -1.2152130428405e-01   
+2.8441637633091e-01   -3.9643989894639e+00   +1.8788319034707e+00   +1.1396858536903e+00   -1.2158997023218e-01   
